Variables = "x points", "y points", "density", "pressure", "temperature", "mach", "u velocity", "v velocity" 
ZONE T="Flow Field", I=200, J=100, F=POINT
-0.100498 0.000394659 0.153002 408273 6721.57 0.142876 -156.198 198.517
-0.101502 0.000398601 0.172215 468771 6814.77 0.020345 23.7787 27.4549
-0.102514 0.000402573 0.174383 475651 6824.49 0.0362822 63.8257 11.4096
-0.103533 0.000406577 0.174636 476367 6825 0.0506473 89.9459 10.1013
-0.104561 0.000410611 0.174556 475996 6823.76 0.0644555 114.72 10.1758
-0.105596 0.000414676 0.174385 475303 6821.91 0.078457 139.773 10.369
-0.106639 0.000418773 0.174157 474408 6819.63 0.0927634 165.331 10.5853
-0.10769 0.000422901 0.173876 473330 6817 0.107426 191.49 10.8326
-0.10875 0.000427062 0.173536 472062 6814.05 0.122507 218.364 11.1217
-0.109817 0.000431254 0.173132 470590 6810.78 0.138087 246.095 11.4603
-0.110893 0.000435479 0.172655 468890 6807.2 0.154265 274.856 11.8536
-0.111977 0.000439736 0.172089 466914 6803.26 0.171173 304.881 12.3043
-0.11307 0.000444027 0.171388 464520 6798.73 0.189095 336.661 12.8156
-0.114171 0.00044835 0.170368 461125 6792.73 0.209006 371.894 13.3843
-0.11528 0.000452707 0.168208 454129 6781.28 0.235129 417.9 13.9892
-0.116398 0.000457098 0.161455 432612 6746.67 0.286335 507.121 14.531
-0.117525 0.000461522 0.138567 360560 6614.8 0.444464 776.263 14.5804
-0.11866 0.000465981 0.0690261 153906 5963.25 1.25975 2044.73 11.3464
-0.119805 0.000470474 0.0146792 4224.22 979.627 9.15896 5698.23 1.22014
-0.120958 0.000475002 0.0138812 900.574 226.053 20.0026 6028.32 0.00194491
-0.122119 0.000479565 0.01388 900 225.929 20.0098 6028.83 -3.48559e-06
-0.12329 0.000484163 0.01388 900 225.929 20.0098 6028.83 -3.4833e-06
-0.12447 0.000488796 0.01388 900 225.929 20.0098 6028.83 -3.48042e-06
-0.125659 0.000493466 0.01388 900 225.929 20.0098 6028.83 -3.47742e-06
-0.126857 0.000498171 0.01388 900 225.929 20.0098 6028.83 -3.4743e-06
-0.128065 0.000502913 0.01388 900 225.929 20.0098 6028.83 -3.47105e-06
-0.129282 0.000507691 0.01388 900 225.929 20.0098 6028.83 -3.46766e-06
-0.130508 0.000512507 0.01388 900 225.929 20.0098 6028.83 -3.46413e-06
-0.131744 0.000517359 0.01388 900 225.929 20.0098 6028.83 -3.46045e-06
-0.132989 0.000522249 0.01388 900 225.929 20.0098 6028.83 -3.45661e-06
-0.134244 0.000527177 0.01388 900 225.929 20.0098 6028.83 -3.45261e-06
-0.135508 0.000532143 0.01388 900 225.929 20.0098 6028.83 -3.44844e-06
-0.136783 0.000537147 0.01388 900 225.929 20.0098 6028.83 -3.44408e-06
-0.138067 0.00054219 0.01388 900 225.929 20.0098 6028.83 -3.43954e-06
-0.139361 0.000547272 0.01388 900 225.929 20.0098 6028.83 -3.4348e-06
-0.140665 0.000552393 0.01388 900 225.929 20.0098 6028.83 -3.42986e-06
-0.141979 0.000557554 0.01388 900 225.929 20.0098 6028.83 -3.42469e-06
-0.143303 0.000562754 0.01388 900 225.929 20.0098 6028.83 -3.4193e-06
-0.144638 0.000567995 0.01388 900 225.929 20.0098 6028.83 -3.41367e-06
-0.145983 0.000573276 0.01388 900 225.929 20.0098 6028.83 -3.40778e-06
-0.147338 0.000578598 0.01388 900 225.929 20.0098 6028.83 -3.40162e-06
-0.148704 0.000583962 0.01388 900 225.929 20.0098 6028.83 -3.39519e-06
-0.15008 0.000589366 0.01388 900 225.929 20.0098 6028.83 -3.38845e-06
-0.151467 0.000594812 0.01388 900 225.929 20.0098 6028.83 -3.38141e-06
-0.152864 0.000600301 0.01388 900 225.929 20.0098 6028.83 -3.37404e-06
-0.154273 0.000605832 0.01388 900 225.929 20.0098 6028.83 -3.36632e-06
-0.155692 0.000611405 0.01388 900 225.929 20.0098 6028.83 -3.35824e-06
-0.157122 0.000617022 0.01388 900 225.929 20.0098 6028.83 -3.34977e-06
-0.158563 0.000622682 0.01388 900 225.929 20.0098 6028.83 -3.34089e-06
-0.160016 0.000628386 0.01388 900 225.929 20.0098 6028.83 -3.33157e-06
-0.161479 0.000634133 0.01388 900 225.929 20.0098 6028.83 -3.3218e-06
-0.162954 0.000639925 0.01388 900 225.929 20.0098 6028.83 -3.31155e-06
-0.164441 0.000645762 0.01388 900 225.929 20.0098 6028.83 -3.30078e-06
-0.165938 0.000651644 0.01388 900 225.929 20.0098 6028.83 -3.28947e-06
-0.167448 0.000657572 0.01388 900 225.929 20.0098 6028.83 -3.27759e-06
-0.168969 0.000663545 0.01388 900 225.929 20.0098 6028.83 -3.26509e-06
-0.170502 0.000669565 0.01388 900 225.929 20.0098 6028.83 -3.25196e-06
-0.172046 0.00067563 0.01388 900 225.929 20.0098 6028.83 -3.23813e-06
-0.173603 0.000681743 0.01388 900 225.929 20.0098 6028.83 -3.22358e-06
-0.175172 0.000687903 0.01388 900 225.929 20.0098 6028.83 -3.20824e-06
-0.176752 0.000694111 0.01388 900 225.929 20.0098 6028.83 -3.19209e-06
-0.178345 0.000700366 0.01388 900 225.929 20.0098 6028.83 -3.17505e-06
-0.17995 0.00070667 0.01388 900 225.929 20.0098 6028.83 -3.15707e-06
-0.181568 0.000713023 0.01388 900 225.929 20.0098 6028.83 -3.13809e-06
-0.183198 0.000719424 0.01388 900 225.929 20.0098 6028.83 -3.11805e-06
-0.184841 0.000725875 0.01388 900 225.929 20.0098 6028.83 -3.09686e-06
-0.186496 0.000732376 0.01388 900 225.929 20.0098 6028.83 -3.07445e-06
-0.188164 0.000738928 0.01388 900 225.929 20.0098 6028.83 -3.05073e-06
-0.189846 0.000745529 0.01388 900 225.929 20.0098 6028.83 -3.02561e-06
-0.19154 0.000752182 0.01388 900 225.929 20.0098 6028.83 -2.999e-06
-0.193247 0.000758886 0.01388 900 225.929 20.0098 6028.83 -2.97077e-06
-0.194967 0.000765642 0.01388 900 225.929 20.0098 6028.83 -2.94082e-06
-0.196701 0.00077245 0.01388 900 225.929 20.0098 6028.83 -2.90901e-06
-0.198448 0.000779311 0.01388 900 225.929 20.0098 6028.83 -2.8752e-06
-0.200208 0.000786225 0.01388 900 225.929 20.0098 6028.83 -2.83923e-06
-0.201982 0.000793192 0.01388 900 225.929 20.0098 6028.83 -2.80095e-06
-0.20377 0.000800213 0.01388 900 225.929 20.0098 6028.83 -2.76016e-06
-0.205572 0.000807288 0.01388 900 225.929 20.0098 6028.83 -2.71667e-06
-0.207387 0.000814418 0.01388 900 225.929 20.0098 6028.83 -2.67025e-06
-0.209217 0.000821603 0.01388 900 225.929 20.0098 6028.83 -2.62066e-06
-0.211061 0.000828843 0.01388 900 225.929 20.0098 6028.83 -2.56765e-06
-0.212919 0.00083614 0.01388 900 225.929 20.0098 6028.83 -2.51091e-06
-0.214791 0.000843493 0.01388 900 225.929 20.0098 6028.83 -2.45013e-06
-0.216678 0.000850902 0.01388 900 225.929 20.0098 6028.83 -2.38496e-06
-0.218579 0.000858369 0.01388 900 225.929 20.0098 6028.83 -2.31501e-06
-0.220495 0.000865894 0.01388 900 225.929 20.0098 6028.83 -2.23986e-06
-0.222426 0.000873476 0.01388 900 225.929 20.0098 6028.83 -2.15902e-06
-0.224372 0.000881117 0.01388 900 225.929 20.0098 6028.83 -2.07199e-06
-0.226333 0.000888818 0.01388 900 225.929 20.0098 6028.83 -1.97817e-06
-0.228309 0.000896577 0.01388 900 225.929 20.0098 6028.83 -1.87694e-06
-0.2303 0.000904397 0.01388 900 225.929 20.0098 6028.83 -1.76757e-06
-0.232306 0.000912277 0.01388 900 225.929 20.0098 6028.83 -1.64929e-06
-0.234329 0.000920218 0.01388 900 225.929 20.0098 6028.83 -1.52121e-06
-0.236366 0.000928221 0.01388 900 225.929 20.0098 6028.83 -1.38236e-06
-0.23842 0.000936285 0.01388 900 225.929 20.0098 6028.83 -1.23166e-06
-0.240489 0.000944411 0.01388 900 225.929 20.0098 6028.83 -1.0679e-06
-0.242574 0.0009526 0.01388 900 225.929 20.0098 6028.83 -8.89726e-07
-0.244676 0.000960853 0.01388 900 225.929 20.0098 6028.83 -6.95636e-07
-0.246793 0.000969169 0.01388 900 225.929 20.0098 6028.83 -4.83945e-07
-0.248927 0.00097755 0.01388 900 225.929 20.0098 6028.83 -2.52769e-07
-0.100492 0.00118395 0.172211 468751 6814.68 0.0313631 -11.0887 54.8811
-0.101496 0.00119578 0.174461 475933 6825.1 0.0265849 31.1465 35.878
-0.102508 0.00120769 0.174729 476793 6826.36 0.0385461 61.703 30.6519
-0.103527 0.0012197 0.174655 476490 6825.52 0.0522174 88.3379 30.0948
-0.104554 0.00123181 0.174498 475875 6823.98 0.0659974 113.951 30.3749
-0.105589 0.001244 0.1743 475097 6822.01 0.0799615 139.48 30.8391
-0.106633 0.00125629 0.17406 474164 6819.68 0.0942026 165.284 31.4158
-0.107684 0.00126868 0.173771 473066 6817.03 0.108796 191.573 32.1154
-0.108743 0.00128116 0.173428 471787 6814.06 0.123818 218.52 32.9551
-0.109811 0.00129374 0.173021 470306 6810.79 0.139353 246.295 33.9493
-0.110886 0.00130641 0.172541 468599 6807.21 0.1555 275.088 35.1099
-0.11197 0.00131918 0.171973 466617 6803.26 0.172395 305.142 36.4448
-0.113063 0.00133205 0.171271 464219 6798.71 0.190318 336.957 37.9619
-0.114164 0.00134502 0.170251 460822 6792.71 0.210243 372.235 39.6527
-0.115273 0.00135809 0.168094 453834 6781.24 0.236372 418.299 41.4554
-0.116391 0.00137127 0.161356 432356 6746.63 0.2875 507.572 43.0728
-0.117518 0.00138454 0.138513 360427 6614.82 0.445283 776.636 43.2177
-0.118653 0.00139792 0.0691114 154134 5964.28 1.25845 2042.61 33.5141
-0.119797 0.0014114 0.0146801 4229.56 980.848 9.15283 5697.85 3.62275
-0.12095 0.00142498 0.0138812 900.574 226.054 20.0026 6028.32 0.0058108
-0.122112 0.00143867 0.01388 900 225.929 20.0098 6028.83 -3.32603e-06
-0.123283 0.00145246 0.01388 900 225.929 20.0098 6028.83 -3.31839e-06
-0.124463 0.00146636 0.01388 900 225.929 20.0098 6028.83 -3.30899e-06
-0.125652 0.00148037 0.01388 900 225.929 20.0098 6028.83 -3.29921e-06
-0.12685 0.00149449 0.01388 900 225.929 20.0098 6028.83 -3.28906e-06
-0.128057 0.00150871 0.01388 900 225.929 20.0098 6028.83 -3.27851e-06
-0.129274 0.00152305 0.01388 900 225.929 20.0098 6028.83 -3.26754e-06
-0.1305 0.00153749 0.01388 900 225.929 20.0098 6028.83 -3.25614e-06
-0.131736 0.00155205 0.01388 900 225.929 20.0098 6028.83 -3.2443e-06
-0.132981 0.00156672 0.01388 900 225.929 20.0098 6028.83 -3.23199e-06
-0.134236 0.00158151 0.01388 900 225.929 20.0098 6028.83 -3.2192e-06
-0.1355 0.0015964 0.01388 900 225.929 20.0098 6028.83 -3.20591e-06
-0.136775 0.00161142 0.01388 900 225.929 20.0098 6028.83 -3.19209e-06
-0.138059 0.00162655 0.01388 900 225.929 20.0098 6028.83 -3.17774e-06
-0.139353 0.00164179 0.01388 900 225.929 20.0098 6028.83 -3.16282e-06
-0.140657 0.00165715 0.01388 900 225.929 20.0098 6028.83 -3.14731e-06
-0.141971 0.00167264 0.01388 900 225.929 20.0098 6028.83 -3.1312e-06
-0.143295 0.00168824 0.01388 900 225.929 20.0098 6028.83 -3.11445e-06
-0.14463 0.00170396 0.01388 900 225.929 20.0098 6028.83 -3.09704e-06
-0.145975 0.00171981 0.01388 900 225.929 20.0098 6028.83 -3.07895e-06
-0.14733 0.00173577 0.01388 900 225.929 20.0098 6028.83 -3.06015e-06
-0.148695 0.00175186 0.01388 900 225.929 20.0098 6028.83 -3.04061e-06
-0.150072 0.00176808 0.01388 900 225.929 20.0098 6028.83 -3.02031e-06
-0.151459 0.00178442 0.01388 900 225.929 20.0098 6028.83 -2.99921e-06
-0.152856 0.00180088 0.01388 900 225.929 20.0098 6028.83 -2.97729e-06
-0.154265 0.00181747 0.01388 900 225.929 20.0098 6028.83 -2.95451e-06
-0.155684 0.0018342 0.01388 900 225.929 20.0098 6028.83 -2.93085e-06
-0.157114 0.00185105 0.01388 900 225.929 20.0098 6028.83 -2.90626e-06
-0.158555 0.00186803 0.01388 900 225.929 20.0098 6028.83 -2.88072e-06
-0.160008 0.00188514 0.01388 900 225.929 20.0098 6028.83 -2.85419e-06
-0.161471 0.00190238 0.01388 900 225.929 20.0098 6028.83 -2.82663e-06
-0.162946 0.00191976 0.01388 900 225.929 20.0098 6028.83 -2.79801e-06
-0.164432 0.00193727 0.01388 900 225.929 20.0098 6028.83 -2.76829e-06
-0.16593 0.00195492 0.01388 900 225.929 20.0098 6028.83 -2.73744e-06
-0.16744 0.0019727 0.01388 900 225.929 20.0098 6028.83 -2.70541e-06
-0.168961 0.00199062 0.01388 900 225.929 20.0098 6028.83 -2.67216e-06
-0.170494 0.00200868 0.01388 900 225.929 20.0098 6028.83 -2.63765e-06
-0.172038 0.00202688 0.01388 900 225.929 20.0098 6028.83 -2.60185e-06
-0.173595 0.00204522 0.01388 900 225.929 20.0098 6028.83 -2.56471e-06
-0.175163 0.0020637 0.01388 900 225.929 20.0098 6028.83 -2.52619e-06
-0.176744 0.00208232 0.01388 900 225.929 20.0098 6028.83 -2.48624e-06
-0.178337 0.00210109 0.01388 900 225.929 20.0098 6028.83 -2.44484e-06
-0.179942 0.00212 0.01388 900 225.929 20.0098 6028.83 -2.40192e-06
-0.18156 0.00213906 0.01388 900 225.929 20.0098 6028.83 -2.35745e-06
-0.18319 0.00215827 0.01388 900 225.929 20.0098 6028.83 -2.31141e-06
-0.184833 0.00217762 0.01388 900 225.929 20.0098 6028.83 -2.26373e-06
-0.186488 0.00219712 0.01388 900 225.929 20.0098 6028.83 -2.21439e-06
-0.188156 0.00221678 0.01388 900 225.929 20.0098 6028.83 -2.16335e-06
-0.189837 0.00223658 0.01388 900 225.929 20.0098 6028.83 -2.11058e-06
-0.191532 0.00225654 0.01388 900 225.929 20.0098 6028.83 -2.05605e-06
-0.193239 0.00227666 0.01388 900 225.929 20.0098 6028.83 -1.99972e-06
-0.194959 0.00229693 0.01388 900 225.929 20.0098 6028.83 -1.94159e-06
-0.196693 0.00231735 0.01388 900 225.929 20.0098 6028.83 -1.88164e-06
-0.19844 0.00233794 0.01388 900 225.929 20.0098 6028.83 -1.81985e-06
-0.2002 0.00235868 0.01388 900 225.929 20.0098 6028.83 -1.75622e-06
-0.201975 0.00237958 0.01388 900 225.929 20.0098 6028.83 -1.69076e-06
-0.203762 0.00240065 0.01388 900 225.929 20.0098 6028.83 -1.62349e-06
-0.205564 0.00242187 0.01388 900 225.929 20.0098 6028.83 -1.55443e-06
-0.20738 0.00244326 0.01388 900 225.929 20.0098 6028.83 -1.48364e-06
-0.209209 0.00246482 0.01388 900 225.929 20.0098 6028.83 -1.41116e-06
-0.211053 0.00248654 0.01388 900 225.929 20.0098 6028.83 -1.33707e-06
-0.212911 0.00250843 0.01388 900 225.929 20.0098 6028.83 -1.26148e-06
-0.214784 0.00253049 0.01388 900 225.929 20.0098 6028.83 -1.18451e-06
-0.21667 0.00255272 0.01388 900 225.929 20.0098 6028.83 -1.10631e-06
-0.218572 0.00257513 0.01388 900 225.929 20.0098 6028.83 -1.02706e-06
-0.220488 0.0025977 0.01388 900 225.929 20.0098 6028.83 -9.46994e-07
-0.222419 0.00262045 0.01388 900 225.929 20.0098 6028.83 -8.66367e-07
-0.224365 0.00264338 0.01388 900 225.929 20.0098 6028.83 -7.85495e-07
-0.226326 0.00266648 0.01388 900 225.929 20.0098 6028.83 -7.04746e-07
-0.228302 0.00268976 0.01388 900 225.929 20.0098 6028.83 -6.2455e-07
-0.230293 0.00271322 0.01388 900 225.929 20.0098 6028.83 -5.45415e-07
-0.232299 0.00273686 0.01388 900 225.929 20.0098 6028.83 -4.67926e-07
-0.234322 0.00276069 0.01388 900 225.929 20.0098 6028.83 -3.92764e-07
-0.236359 0.0027847 0.01388 900 225.929 20.0098 6028.83 -3.20716e-07
-0.238413 0.00280889 0.01388 900 225.929 20.0098 6028.83 -2.52689e-07
-0.240482 0.00283327 0.01388 900 225.929 20.0098 6028.83 -1.89731e-07
-0.242568 0.00285784 0.01388 900 225.929 20.0098 6028.83 -1.33049e-07
-0.244669 0.0028826 0.01388 900 225.929 20.0098 6028.83 -8.40254e-08
-0.246787 0.00290755 0.01388 900 225.929 20.0098 6028.83 -4.42507e-08
-0.248921 0.0029327 0.01388 900 225.929 20.0098 6028.83 -1.55468e-08
-0.10048 0.00197317 0.174641 476490 6825.79 0.0311596 9.57722 54.8611
-0.101484 0.00199288 0.174838 477179 6827.13 0.0355374 35.8887 52.4157
-0.102495 0.00201274 0.174759 476932 6826.81 0.044878 62.249 50.5977
-0.103514 0.00203276 0.174624 476439 6825.75 0.0567858 88.2009 50.211
-0.104541 0.00205293 0.174455 475791 6824.18 0.0697101 113.89 50.4601
-0.105576 0.00207325 0.174252 475000 6822.2 0.0831956 139.591 51.0448
-0.106619 0.00209374 0.174009 474060 6819.86 0.0971311 165.537 51.8894
-0.107671 0.00211438 0.17372 472957 6817.2 0.111515 191.928 52.983
-0.10873 0.00213518 0.173376 471677 6814.23 0.12639 218.948 54.3332
-0.109797 0.00215614 0.17297 470197 6810.95 0.141825 246.778 55.9528
-0.110873 0.00217726 0.172492 468493 6807.37 0.157909 275.616 57.8554
-0.111957 0.00219855 0.171925 466516 6803.41 0.174771 305.713 60.0532
-0.113049 0.00222 0.171227 464125 6798.86 0.192689 337.573 62.5569
-0.11415 0.00224162 0.170211 460738 6792.83 0.212622 372.901 65.3538
-0.115259 0.0022634 0.168063 453770 6781.35 0.238724 419.003 68.3409
-0.116377 0.00228536 0.161348 432351 6746.75 0.289616 508.217 71.0187
-0.117504 0.00230748 0.138558 360573 6615.13 0.446529 776.784 71.2325
-0.118639 0.00232977 0.0693867 154857 5967.32 1.25436 2036.2 55.0763
-0.119783 0.00235224 0.0146839 4247.48 984.875 9.13253 5696.49 5.99814
-0.120936 0.00237488 0.0138812 900.578 226.054 20.0025 6028.32 0.00967112
-0.122098 0.00239769 0.01388 900 225.929 20.0098 6028.83 -3.10854e-06
-0.123268 0.00242068 0.01388 900 225.929 20.0098 6028.83 -3.09377e-06
-0.124448 0.00244385 0.01388 900 225.929 20.0098 6028.83 -3.07606e-06
-0.125637 0.0024672 0.01388 900 225.929 20.0098 6028.83 -3.05774e-06
-0.126835 0.00249072 0.01388 900 225.929 20.0098 6028.83 -3.03879e-06
-0.128042 0.00251443 0.01388 900 225.929 20.0098 6028.83 -3.01919e-06
-0.129259 0.00253832 0.01388 900 225.929 20.0098 6028.83 -2.99892e-06
-0.130485 0.0025624 0.01388 900 225.929 20.0098 6028.83 -2.97795e-06
-0.131721 0.00258667 0.01388 900 225.929 20.0098 6028.83 -2.95628e-06
-0.132966 0.00261112 0.01388 900 225.929 20.0098 6028.83 -2.93387e-06
-0.134221 0.00263576 0.01388 900 225.929 20.0098 6028.83 -2.91072e-06
-0.135485 0.00266059 0.01388 900 225.929 20.0098 6028.83 -2.88679e-06
-0.136759 0.00268561 0.01388 900 225.929 20.0098 6028.83 -2.86208e-06
-0.138043 0.00271083 0.01388 900 225.929 20.0098 6028.83 -2.83655e-06
-0.139337 0.00273624 0.01388 900 225.929 20.0098 6028.83 -2.81019e-06
-0.140641 0.00276184 0.01388 900 225.929 20.0098 6028.83 -2.78297e-06
-0.141955 0.00278765 0.01388 900 225.929 20.0098 6028.83 -2.75488e-06
-0.143279 0.00281365 0.01388 900 225.929 20.0098 6028.83 -2.7259e-06
-0.144614 0.00283986 0.01388 900 225.929 20.0098 6028.83 -2.69601e-06
-0.145959 0.00286627 0.01388 900 225.929 20.0098 6028.83 -2.66518e-06
-0.147314 0.00289288 0.01388 900 225.929 20.0098 6028.83 -2.63341e-06
-0.148679 0.0029197 0.01388 900 225.929 20.0098 6028.83 -2.60066e-06
-0.150056 0.00294672 0.01388 900 225.929 20.0098 6028.83 -2.56693e-06
-0.151442 0.00297395 0.01388 900 225.929 20.0098 6028.83 -2.53219e-06
-0.15284 0.0030014 0.01388 900 225.929 20.0098 6028.83 -2.49644e-06
-0.154248 0.00302905 0.01388 900 225.929 20.0098 6028.83 -2.45964e-06
-0.155668 0.00305692 0.01388 900 225.929 20.0098 6028.83 -2.4218e-06
-0.157098 0.00308501 0.01388 900 225.929 20.0098 6028.83 -2.3829e-06
-0.158539 0.00311331 0.01388 900 225.929 20.0098 6028.83 -2.34293e-06
-0.159991 0.00314183 0.01388 900 225.929 20.0098 6028.83 -2.30189e-06
-0.161455 0.00317058 0.01388 900 225.929 20.0098 6028.83 -2.25976e-06
-0.16293 0.00319954 0.01388 900 225.929 20.0098 6028.83 -2.21653e-06
-0.164416 0.00322873 0.01388 900 225.929 20.0098 6028.83 -2.17221e-06
-0.165914 0.00325814 0.01388 900 225.929 20.0098 6028.83 -2.12679e-06
-0.167423 0.00328778 0.01388 900 225.929 20.0098 6028.83 -2.08028e-06
-0.168944 0.00331765 0.01388 900 225.929 20.0098 6028.83 -2.03269e-06
-0.170477 0.00334775 0.01388 900 225.929 20.0098 6028.83 -1.98401e-06
-0.172022 0.00337809 0.01388 900 225.929 20.0098 6028.83 -1.93427e-06
-0.173578 0.00340865 0.01388 900 225.929 20.0098 6028.83 -1.88348e-06
-0.175147 0.00343946 0.01388 900 225.929 20.0098 6028.83 -1.83166e-06
-0.176728 0.0034705 0.01388 900 225.929 20.0098 6028.83 -1.77884e-06
-0.178321 0.00350178 0.01388 900 225.929 20.0098 6028.83 -1.72505e-06
-0.179926 0.00353331 0.01388 900 225.929 20.0098 6028.83 -1.67032e-06
-0.181544 0.00356507 0.01388 900 225.929 20.0098 6028.83 -1.6147e-06
-0.183174 0.00359709 0.01388 900 225.929 20.0098 6028.83 -1.55823e-06
-0.184816 0.00362935 0.01388 900 225.929 20.0098 6028.83 -1.50097e-06
-0.186472 0.00366186 0.01388 900 225.929 20.0098 6028.83 -1.44298e-06
-0.18814 0.00369462 0.01388 900 225.929 20.0098 6028.83 -1.38432e-06
-0.189821 0.00372763 0.01388 900 225.929 20.0098 6028.83 -1.32509e-06
-0.191516 0.0037609 0.01388 900 225.929 20.0098 6028.83 -1.26535e-06
-0.193223 0.00379443 0.01388 900 225.929 20.0098 6028.83 -1.2052e-06
-0.194943 0.00382821 0.01388 900 225.929 20.0098 6028.83 -1.14476e-06
-0.196677 0.00386226 0.01388 900 225.929 20.0098 6028.83 -1.08412e-06
-0.198424 0.00389657 0.01388 900 225.929 20.0098 6028.83 -1.02342e-06
-0.200185 0.00393114 0.01388 900 225.929 20.0098 6028.83 -9.62781e-07
-0.201959 0.00396599 0.01388 900 225.929 20.0098 6028.83 -9.02353e-07
-0.203747 0.0040011 0.01388 900 225.929 20.0098 6028.83 -8.42286e-07
-0.205549 0.00403648 0.01388 900 225.929 20.0098 6028.83 -7.82745e-07
-0.207364 0.00407214 0.01388 900 225.929 20.0098 6028.83 -7.23905e-07
-0.209194 0.00410807 0.01388 900 225.929 20.0098 6028.83 -6.65951e-07
-0.211038 0.00414428 0.01388 900 225.929 20.0098 6028.83 -6.09079e-07
-0.212896 0.00418077 0.01388 900 225.929 20.0098 6028.83 -5.53489e-07
-0.214768 0.00421754 0.01388 900 225.929 20.0098 6028.83 -4.99396e-07
