Variables = " x points", "y points", "density", "pressure", "temperature", "mach", "u velocity", "v velocity" 
ZONE T="Flow Field", I=200, J=100, F=POINT
-0.000394659 -0.100498 0.013642 34510.5 8814.35 2.2458 4225.2 -100.913
-0.000398623 -0.101508 0.0141391 36524.1 9000.68 2.21844 4214.65 -187.635
-0.000402665 -0.102537 0.0147212 38785.5 9180.03 2.19019 4198.34 -259.997
-0.000406784 -0.103586 0.0152986 41011.2 9340.48 2.16345 4178.41 -326.943
-0.000410983 -0.104656 0.0158682 43204.6 9486.8 2.13806 4156.11 -389.227
-0.000415263 -0.105746 0.0164292 45369.4 9621.97 2.11387 4132.23 -447.417
-0.000419626 -0.106857 0.0169815 47508.5 9747.95 2.09079 4107.26 -501.98
-0.000424073 -0.10799 0.0175253 49624.1 9866.07 2.06873 4081.56 -553.299
-0.000428606 -0.109144 0.0180611 51717.7 9977.32 2.04762 4055.4 -601.702
-0.000433226 -0.110321 0.0185891 53790.4 10082.4 2.02741 4028.95 -647.465
-0.000437936 -0.111521 0.0191099 55843.2 10181.9 2.00805 4002.38 -690.828
-0.000442736 -0.112743 0.019624 57876.6 10276.2 1.9895 3975.82 -732.002
-0.00044763 -0.11399 0.0201318 59891.3 10365.7 1.97173 3949.35 -771.171
-0.000452617 -0.11526 0.0206337 61887.6 10450.7 1.95471 3923.07 -808.501
-0.000457701 -0.116556 0.0211303 63865.8 10531.3 1.93842 3897.05 -844.142
-0.000462883 -0.117876 0.021622 65826.3 10607.7 1.92285 3871.37 -878.229
-0.000468166 -0.119222 0.0221091 67769.2 10680.2 1.90798 3846.07 -910.886
-0.00047355 -0.120593 0.0225923 69694.8 10748.8 1.8938 3821.22 -942.228
-0.000479038 -0.121992 0.0230719 71603.3 10813.6 1.88031 3796.86 -972.363
-0.000484632 -0.123417 0.0235484 73495.2 10874.7 1.8675 3773.04 -1001.39
-0.000490334 -0.12487 0.0240222 75370.5 10932.2 1.85536 3749.81 -1029.4
-0.000496147 -0.126351 0.0244939 77229.7 10986.1 1.8439 3727.21 -1056.49
-0.000502071 -0.12786 0.024964 79073.3 11036.6 1.83312 3705.27 -1082.74
-0.00050811 -0.129399 0.025433 80901.5 11083.5 1.82302 3684.04 -1108.22
-0.000514265 -0.130968 0.0259014 82715.1 11127 1.8136 3663.54 -1133.03
-0.00052054 -0.132567 0.0263699 84514.5 11167.1 1.80488 3643.82 -1157.23
-0.000526935 -0.134197 0.0268391 86300.5 11203.8 1.79685 3624.9 -1180.89
-0.000533454 -0.135858 0.0273096 88073.8 11237 1.78953 3606.81 -1204.09
-0.000540099 -0.137552 0.0277823 89835.3 11266.7 1.78292 3589.58 -1226.88
-0.000546872 -0.139278 0.0282579 91586 11293 1.77704 3573.24 -1249.34
-0.000553776 -0.141038 0.0287372 93326.9 11315.7 1.7719 3557.81 -1271.54
-0.000560814 -0.142831 0.0292212 95059.2 11334.8 1.76752 3543.32 -1293.52
-0.000567987 -0.14466 0.0297108 96784.3 11350.3 1.7639 3529.79 -1315.36
-0.000575298 -0.146523 0.0302071 98503.4 11362.1 1.76108 3517.24 -1337.11
-0.000582751 -0.148423 0.0307113 100218 11370.2 1.75906 3505.7 -1358.84
-0.000590348 -0.15036 0.0312247 101931 11374.3 1.75787 3495.18 -1380.59
-0.000598091 -0.152334 0.0317486 103642 11374.4 1.75753 3485.71 -1402.44
-0.000605984 -0.154346 0.0322846 105355 11370.5 1.75806 3477.31 -1424.43
-0.00061403 -0.156397 0.0328342 107071 11362.3 1.7595 3470 -1446.63
-0.00062223 -0.158488 0.0333994 108794 11349.7 1.76187 3463.79 -1469.08
-0.000630589 -0.160619 0.0339821 110525 11332.6 1.76521 3458.71 -1491.85
-0.00063911 -0.162791 0.0345845 112267 11310.7 1.76955 3454.78 -1515
-0.000647795 -0.165005 0.0352091 114024 11283.9 1.77494 3452 -1538.57
-0.000656647 -0.167263 0.0358585 115799 11252 1.7814 3450.4 -1562.63
-0.000665671 -0.169564 0.0365354 117595 11214.8 1.78899 3449.99 -1587.23
-0.000674869 -0.171909 0.037243 119416 11172.1 1.79774 3450.78 -1612.43
-0.000684244 -0.1743 0.0379846 121267 11123.8 1.8077 3452.77 -1638.27
-0.000693801 -0.176737 0.0387639 123153 11069.6 1.81892 3455.97 -1664.81
-0.000703542 -0.179221 0.0395849 125077 11009.5 1.83143 3460.37 -1692.09
-0.000713471 -0.181753 0.0404522 127047 10943.1 1.84528 3465.96 -1720.15
-0.000723592 -0.184334 0.0413711 129067 10870.2 1.86054 3472.75 -1749.03
-0.000733908 -0.186965 0.0423475 131146 10790.6 1.87726 3480.7 -1778.77
-0.000744423 -0.189647 0.0433885 133290 10703.9 1.89551 3489.8 -1809.4
-0.000755142 -0.192381 0.0445024 135508 10609.6 1.91538 3500.03 -1840.94
-0.000766067 -0.195167 0.0456986 137809 10507.4 1.93694 3511.35 -1873.42
-0.000777204 -0.198008 0.046988 140203 10396.6 1.96031 3523.72 -1906.85
-0.000788555 -0.200904 0.0483826 142701 10276.8 1.98556 3537.06 -1941.25
-0.000800126 -0.203855 0.0498961 145315 10147.6 2.0128 3551.3 -1976.59
-0.00081192 -0.206864 0.0515433 148058 10008.7 2.04211 3566.35 -2012.87
-0.000823941 -0.20993 0.0533404 150944 9860.04 2.07356 3582.12 -2050.03
-0.000836195 -0.213056 0.0553031 153982 9701.49 2.10724 3598.54 -2087.99
-0.000848686 -0.216243 0.0574434 157162 9532.89 2.14332 3615.69 -2126.64
-0.000861418 -0.219491 0.0597579 160411 9353.14 2.18222 3634.07 -2165.63
-0.000874395 -0.222802 0.0621853 163452 9158.4 2.22513 3655.45 -2203.93
-0.000887623 -0.226177 0.064474 165376 8937.31 2.27543 3685.42 -2238.42
-0.000901107 -0.229617 0.065828 163568 8657.75 2.34295 3740.15 -2259.92
-0.00091485 -0.233124 0.0642292 151772 8233.38 2.4547 3860.67 -2242.52
-0.00092886 -0.236699 0.0563725 120507 7448.39 2.68311 4130.97 -2116.64
-0.000943139 -0.240343 0.0410993 68843 5836.38 3.24573 4660.83 -1726.63
-0.000957695 -0.244057 0.0241507 20347.8 2935.66 5.07409 5436.09 -904.392
-0.000972531 -0.247843 0.0148535 1926.53 451.925 14.0342 5979.53 -99.2466
-0.000987654 -0.251702 0.01388 900 225.929 20.0098 6028.83 1.28419e-12
-0.00100307 -0.255636 0.01388 900 225.929 20.0098 6028.83 -4.03833e-13
-0.00101878 -0.259646 0.01388 900 225.929 20.0098 6028.83 -1.03884e-12
-0.0010348 -0.263734 0.01388 900 225.929 20.0098 6028.83 -1.00494e-12
-0.00105112 -0.267901 0.01388 900 225.929 20.0098 6028.83 4.06864e-14
-0.00106776 -0.272148 0.01388 900 225.929 20.0098 6028.83 -4.3631e-13
-0.00108473 -0.276477 0.01388 900 225.929 20.0098 6028.83 -8.97575e-13
-0.00110202 -0.28089 0.01388 900 225.929 20.0098 6028.83 5.32488e-13
-0.00111964 -0.285389 0.01388 900 225.929 20.0098 6028.83 -6.35803e-13
-0.0011376 -0.289974 0.01388 900 225.929 20.0098 6028.83 2.97727e-13
-0.00115591 -0.294648 0.01388 900 225.929 20.0098 6028.83 1.2651e-13
-0.00117458 -0.299413 0.01388 900 225.929 20.0098 6028.83 7.12924e-13
-0.0011936 -0.30427 0.01388 900 225.929 20.0098 6028.83 -6.15114e-13
-0.00121299 -0.30922 0.01388 900 225.929 20.0098 6028.83 9.37313e-13
-0.00123276 -0.314266 0.01388 900 225.929 20.0098 6028.83 3.23953e-12
-0.00125291 -0.31941 0.01388 900 225.929 20.0098 6028.83 2.00626e-12
-0.00127344 -0.324654 0.01388 900 225.929 20.0098 6028.83 -4.85538e-13
-0.00129438 -0.329999 0.01388 900 225.929 20.0098 6028.83 -2.02003e-12
-0.00131571 -0.335447 0.01388 900 225.929 20.0098 6028.83 -2.30322e-12
-0.00133746 -0.341 0.01388 900 225.929 20.0098 6028.83 -1.6797e-12
-0.00135963 -0.346661 0.01388 900 225.929 20.0098 6028.83 -1.82426e-12
-0.00138223 -0.352432 0.01388 900 225.929 20.0098 6028.83 -4.3396e-13
-0.00140526 -0.358314 0.01388 900 225.929 20.0098 6028.83 -4.38541e-13
-0.00142874 -0.36431 0.01388 900 225.929 20.0098 6028.83 3.59868e-14
-0.00145267 -0.370422 0.01388 900 225.929 20.0098 6028.83 5.43642e-14
-0.00147707 -0.376652 0.01388 900 225.929 20.0098 6028.83 -6.58474e-13
-0.00150193 -0.383002 0.01388 900 225.929 20.0098 6028.83 -3.96083e-13
-0.00152728 -0.389475 0.01388 900 225.929 20.0098 6028.83 3.48221e-13
-0.00155311 -0.396074 0.01388 900 225.929 20.0098 6028.83 7.50598e-13
-0.00118395 -0.100492 0.0139074 35443.8 8879.95 2.2301 4210.35 -132.92
-0.00119585 -0.101502 0.0144071 37483.5 9065.29 2.20322 4199.21 -218.492
-0.00120797 -0.102531 0.0149923 39773.8 9243.72 2.17541 4182.44 -289.87
-0.00122033 -0.10358 0.0155728 42027.5 9403.39 2.14905 4162.1 -355.894
-0.00123292 -0.104649 0.0161456 44248 9549 2.12399 4139.43 -417.306
-0.00124576 -0.105738 0.0167098 46439.2 9683.51 2.1001 4115.21 -474.668
-0.00125884 -0.106849 0.0172652 48603.9 9808.85 2.07729 4089.93 -528.439
-0.00127218 -0.107981 0.0178121 50744.1 9926.36 2.05548 4063.95 -579.001
-0.00128577 -0.109135 0.0183508 52861.5 10037 2.0346 4037.53 -626.677
-0.00129963 -0.110311 0.0188817 54957.3 10141.5 2.0146 4010.86 -671.74
-0.00131375 -0.11151 0.0194054 57032.4 10240.4 1.99544 3984.09 -714.429
-0.00132815 -0.112732 0.0199223 59087.3 10334.1 1.97708 3957.35 -754.952
-0.00134282 -0.113978 0.0204328 61122.8 10423 1.9595 3930.72 -793.493
-0.00135778 -0.115247 0.0209375 63139.2 10507.3 1.94266 3904.31 -830.217
-0.00137302 -0.116541 0.0214367 65136.8 10587.3 1.92654 3878.18 -865.272
-0.00138856 -0.11786 0.021931 67116.1 10663.2 1.91114 3852.41 -898.793
-0.00140439 -0.119205 0.0224208 69077.1 10735 1.89644 3827.04 -930.905
-0.00142053 -0.120575 0.0229066 71020.3 10802.9 1.88243 3802.14 -961.722
-0.00143699 -0.121972 0.0233888 72946 10867.1 1.86911 3777.75 -991.349
-0.00145376 -0.123395 0.0238679 74854.3 10927.5 1.85646 3753.93 -1019.89
-0.00147085 -0.124846 0.0243444 76745.8 10984.3 1.84449 3730.71 -1047.43
-0.00148827 -0.126325 0.0248188 78620.7 11037.6 1.83319 3708.14 -1074.07
-0.00150603 -0.127833 0.0252917 80479.5 11087.3 1.82258 3686.25 -1099.89
-0.00152413 -0.12937 0.0257635 82322.7 11133.5 1.81264 3665.08 -1124.97
-0.00154258 -0.130936 0.0262348 84150.8 11176.3 1.8034 3644.66 -1149.38
-0.00156138 -0.132532 0.0267063 85964.6 11215.6 1.79484 3625.03 -1173.21
-0.00158055 -0.134159 0.0271787 87764.7 11251.5 1.78699 3606.23 -1196.52
-0.00160008 -0.135818 0.0276525 89552 11283.9 1.77984 3588.27 -1219.38
-0.00161999 -0.137509 0.0281286 91327.4 11312.8 1.77341 3571.18 -1241.86
-0.00164029 -0.139232 0.0286077 93091.8 11338.3 1.76772 3555 -1264.03
-0.00166097 -0.140988 0.0290908 94846.5 11360.1 1.76276 3539.74 -1285.95
-0.00168206 -0.142778 0.0295788 96592.6 11378.4 1.75857 3525.43 -1307.68
-0.00170355 -0.144603 0.0300727 98331.5 11393 1.75515 3512.1 -1329.29
-0.00172546 -0.146463 0.0305736 100065 11403.9 1.75252 3499.76 -1350.83
-0.00174778 -0.148359 0.0310827 101794 11410.9 1.75071 3488.44 -1372.36
-0.00177054 -0.150291 0.0316013 103520 11414 1.74972 3478.16 -1393.95
-0.00179374 -0.152261 0.0321308 105247 11413.2 1.7496 3468.94 -1415.64
-0.00181738 -0.154268 0.0326728 106975 11408.1 1.75035 3460.79 -1437.5
-0.00184148 -0.156315 0.033229 108707 11398.8 1.75202 3453.74 -1459.59
-0.00186604 -0.1584 0.0338012 110446 11385.1 1.75462 3447.81 -1481.95
-0.00189108 -0.160526 0.0343915 112194 11366.7 1.75821 3443.02 -1504.66
-0.0019166 -0.162693 0.0350023 113954 11343.6 1.7628 3439.38 -1527.76
-0.00194261 -0.164902 0.0356359 115729 11315.5 1.76844 3436.91 -1551.31
-0.00196912 -0.167153 0.0362951 117523 11282.2 1.77518 3435.62 -1575.37
-0.00199614 -0.169448 0.0369827 119340 11243.6 1.78305 3435.53 -1599.99
-0.00202368 -0.171786 0.037702 121183 11199.4 1.79209 3436.65 -1625.23
-0.00205176 -0.17417 0.0384563 123057 11149.6 1.80235 3438.97 -1651.13
-0.00208037 -0.1766 0.0392494 124967 11093.8 1.81387 3442.51 -1677.76
-0.00210954 -0.179077 0.0400855 126918 11031.9 1.82671 3447.25 -1705.14
-0.00213927 -0.181602 0.0409693 128915 10963.8 1.8409 3453.19 -1733.33
-0.00216957 -0.184175 0.0419063 130965 10889.2 1.8565 3460.32 -1762.36
-0.00220045 -0.186797 0.0429027 133076 10807.7 1.87358 3468.62 -1792.26
-0.00223193 -0.189471 0.0439658 135254 10719 1.89221 3478.07 -1823.07
-0.00226402 -0.192196 0.0451043 137509 10622.6 1.91247 3488.65 -1854.81
-0.00229672 -0.194973 0.0463279 139850 10518.1 1.93445 3500.31 -1887.5
-0.00233005 -0.197804 0.0476479 142288 10405 1.95825 3513 -1921.16
-0.00236403 -0.20069 0.0490769 144832 10282.7 1.98397 3526.67 -1955.79
-0.00239866 -0.203631 0.0506287 147496 10150.9 2.0117 3541.22 -1991.39
-0.00243396 -0.206629 0.0523188 150294 10009.3 2.04151 3556.57 -2027.91
-0.00246994 -0.209684 0.0541633 153238 9857.77 2.07349 3572.62 -2065.32
-0.00250661 -0.212799 0.0561775 156333 9696.31 2.10774 3589.34 -2103.51
-0.00254399 -0.215973 0.0583705 159558 9524.53 2.14446 3606.88 -2142.3
-0.00258209 -0.219209 0.0607264 162795 9340.76 2.18425 3626.05 -2181.21
-0.00262092 -0.222507 0.0631428 165623 9139.34 2.22878 3649.47 -2218.75
-0.0026605 -0.225869 0.06524 166712 8903.7 2.28295 3685.27 -2250.4
-0.00270084 -0.229296 0.0658893 162399 8587.9 2.36069 3756.12 -2263.03
-0.00274197 -0.232788 0.0625046 144793 8071.51 2.49979 3916.44 -2219.84
-0.00278388 -0.236348 0.0518353 105064 7062.33 2.80362 4266.66 -2024.92
-0.0028266 -0.239977 0.034938 50007.9 4987.23 3.62255 4907.3 -1488.25
-0.00287014 -0.243675 0.01946 9997.27 1790.01 6.74704 5695.47 -550.236
-0.00291453 -0.247445 0.014033 1003.21 249.092 19.0385 6023.07 -12.9709
-0.00295976 -0.251287 0.01388 900 225.929 20.0098 6028.83 1.13618e-12
-0.00300587 -0.255204 0.01388 900 225.929 20.0098 6028.83 -1.09315e-13
-0.00305287 -0.259196 0.01388 900 225.929 20.0098 6028.83 -9.27169e-13
-0.00310077 -0.263265 0.01388 900 225.929 20.0098 6028.83 -6.89229e-13
-0.0031496 -0.267413 0.01388 900 225.929 20.0098 6028.83 1.56496e-13
-0.00319937 -0.27164 0.01388 900 225.929 20.0098 6028.83 -2.23355e-13
-0.00325009 -0.275949 0.01388 900 225.929 20.0098 6028.83 -6.72307e-13
-0.0033018 -0.280341 0.01388 900 225.929 20.0098 6028.83 -6.28742e-14
-0.0033545 -0.284818 0.01388 900 225.929 20.0098 6028.83 -5.9441e-13
-0.00340821 -0.289381 0.01388 900 225.929 20.0098 6028.83 5.07875e-13
-0.00346296 -0.294031 0.01388 900 225.929 20.0098 6028.83 5.08223e-13
-0.00351877 -0.298772 0.01388 900 225.929 20.0098 6028.83 2.81549e-13
-0.00357565 -0.303604 0.01388 900 225.929 20.0098 6028.83 -8.57151e-13
-0.00363362 -0.308529 0.01388 900 225.929 20.0098 6028.83 3.70698e-13
-0.00369271 -0.313549 0.01388 900 225.929 20.0098 6028.83 3.08167e-12
-0.00375295 -0.318666 0.01388 900 225.929 20.0098 6028.83 1.69003e-12
-0.00381434 -0.323882 0.01388 900 225.929 20.0098 6028.83 -3.73715e-13
-0.00387691 -0.329198 0.01388 900 225.929 20.0098 6028.83 -1.83171e-12
-0.00394069 -0.334616 0.01388 900 225.929 20.0098 6028.83 -1.91218e-12
-0.0040057 -0.340139 0.01388 900 225.929 20.0098 6028.83 -1.61397e-12
-0.00407197 -0.345768 0.01388 900 225.929 20.0098 6028.83 -1.59538e-12
-0.0041395 -0.351506 0.01388 900 225.929 20.0098 6028.83 -6.47737e-13
-0.00420834 -0.357355 0.01388 900 225.929 20.0098 6028.83 -3.6329e-13
-0.00427851 -0.363316 0.01388 900 225.929 20.0098 6028.83 -4.99136e-15
-0.00435003 -0.369393 0.01388 900 225.929 20.0098 6028.83 6.01781e-14
-0.00442292 -0.375586 0.01388 900 225.929 20.0098 6028.83 -6.455e-13
-0.00449723 -0.381899 0.01388 900 225.929 20.0098 6028.83 -1.9956e-13
-0.00457296 -0.388333 0.01388 900 225.929 20.0098 6028.83 9.05754e-14
-0.00465015 -0.394892 0.01388 900 225.929 20.0098 6028.83 6.63342e-13
-0.00197317 -0.10048 0.0141762 36396.3 8945.7 2.21448 4195.17 -164.704
-0.00199299 -0.101489 0.0146785 38462.2 9130.03 2.18808 4183.46 -249.125
-0.0020132 -0.102518 0.0152667 40781.3 9307.53 2.16071 4166.25 -319.52
-0.00203379 -0.103567 0.0158503 43062.9 9466.4 2.13473 4145.51 -384.619
-0.00205477 -0.104635 0.0164261 45310.5 9611.29 2.10999 4122.49 -445.157
-0.00207616 -0.105725 0.0169934 47528 9745.12 2.0864 4097.93 -501.687
-0.00209796 -0.106835 0.0175519 49718 9869.82 2.06385 4072.36 -554.665
-0.00212018 -0.107966 0.0181017 51882.9 9986.7 2.04228 4046.11 -604.468
-0.00214283 -0.10912 0.0186434 54024.1 10096.7 2.02163 4019.45 -651.414
-0.00216591 -0.110295 0.0191772 56142.8 10200.6 2.00184 3992.56 -695.776
-0.00218943 -0.111493 0.0197037 58240 10298.9 1.98288 3965.6 -737.789
-0.00221341 -0.112714 0.0202233 60316.4 10392 1.96472 3938.69 -777.66
-0.00223785 -0.113959 0.0207366 62372.5 10480.3 1.94732 3911.92 -815.572
-0.00226275 -0.115227 0.0212439 64408.9 10564 1.93066 3885.38 -851.689
-0.00228814 -0.11652 0.0217458 66425.8 10643.4 1.91472 3859.15 -886.158
-0.00231401 -0.117837 0.0222427 68423.7 10718.6 1.89949 3833.3 -919.114
-0.00234038 -0.11918 0.0227351 70402.8 10789.8 1.88496 3807.87 -950.681
-0.00236726 -0.120549 0.0232234 72363.5 10857 1.87111 3782.93 -980.972
-0.00239465 -0.121944 0.0237082 74306 10920.5 1.85795 3758.53 -1010.09
-0.00242257 -0.123366 0.02419 76230.8 10980.3 1.84547 3734.7 -1038.15
-0.00245102 -0.124815 0.0246691 78138.2 11036.4 1.83366 3711.5 -1065.22
-0.00248002 -0.126292 0.0251463 80028.6 11088.9 1.82253 3688.96 -1091.42
-0.00250958 -0.127797 0.0256218 81902.6 11138 1.81208 3667.13 -1116.81
-0.00253971 -0.129332 0.0260965 83760.6 11183.5 1.80232 3646.03 -1141.47
-0.00257041 -0.130896 0.0265707 85603.3 11225.5 1.79324 3625.7 -1165.5
-0.00260171 -0.132489 0.0270452 87431.3 11264 1.78485 3606.18 -1188.96
-0.0026336 -0.134114 0.0275207 89245.5 11299.1 1.77717 3587.49 -1211.92
-0.00266611 -0.13577 0.0279978 91046.7 11330.7 1.7702 3569.67 -1234.45
-0.00269924 -0.137457 0.0284773 92835.8 11358.9 1.76395 3552.73 -1256.62
-0.00273301 -0.139177 0.0289601 94613.9 11383.4 1.75844 3536.71 -1278.5
-0.00276743 -0.14093 0.029447 96382.2 11404.4 1.75367 3521.63 -1300.15
-0.00280251 -0.142717 0.029939 98142.1 11421.8 1.74967 3507.52 -1321.64
-0.00283826 -0.144538 0.0304372 99894.8 11435.5 1.74644 3494.39 -1343.01
-0.0028747 -0.146394 0.0309427 101642 11445.4 1.74402 3482.26 -1364.34
-0.00291184 -0.148285 0.0314567 103385 11451.5 1.7424 3471.17 -1385.69
-0.00294969 -0.150213 0.0319806 105126 11453.6 1.74163 3461.13 -1407.11
-0.00298827 -0.152178 0.0325158 106868 11451.7 1.74172 3452.15 -1428.65
-0.00302759 -0.154181 0.0330638 108611 11445.6 1.7427 3444.27 -1450.39
-0.00306767 -0.156222 0.0336266 110359 11435.2 1.74459 3437.49 -1472.37
-0.00310852 -0.158303 0.034206 112114 11420.3 1.74743 3431.84 -1494.66
-0.00315015 -0.160423 0.0348041 113879 11400.7 1.75126 3427.34 -1517.3
-0.00319258 -0.162585 0.0354232 115657 11376.3 1.7561 3424 -1540.36
-0.00323582 -0.164787 0.036066 117451 11346.9 1.76201 3421.84 -1563.89
-0.0032799 -0.167033 0.0367351 119264 11312.2 1.76901 3420.87 -1587.96
-0.00332482 -0.169321 0.0374336 121102 11272.2 1.77716 3421.1 -1612.6
-0.00337061 -0.171653 0.0381647 122967 11226.5 1.78649 3422.55 -1637.89
-0.00341728 -0.17403 0.038932 124864 11175.1 1.79706 3425.21 -1663.87
-0.00346484 -0.176453 0.0397391 126799 11117.7 1.80889 3429.09 -1690.58
-0.00351331 -0.178922 0.0405906 128776 11054.2 1.82205 3434.18 -1718.08
-0.00356272 -0.181439 0.0414912 130801 10984.3 1.83657 3440.46 -1746.4
-0.00361308 -0.184004 0.0424466 132881 10907.8 1.85252 3447.94 -1775.58
-0.0036644 -0.186618 0.0434633 135024 10824.5 1.86996 3456.59 -1805.65
-0.00371671 -0.189283 0.044549 137237 10733.8 1.88897 3466.39 -1836.64
-0.00377002 -0.191998 0.0457125 139530 10635.3 1.90963 3477.3 -1868.58
-0.00382436 -0.194766 0.0469642 141911 10528.6 1.93203 3489.3 -1901.49
-0.00387974 -0.197587 0.0483155 144392 10413 1.95627 3502.33 -1935.38
-0.00393619 -0.200463 0.0497795 146984 10288.2 1.98246 3516.32 -1970.25
-0.00399372 -0.203393 0.0513705 149700 10153.7 2.01067 3531.18 -2006.1
-0.00405235 -0.20638 0.0531043 152552 10009.4 2.04099 3546.82 -2042.87
-0.00411211 -0.209425 0.0549969 155553 9855.06 2.07351 3563.16 -2080.52
-0.00417302 -0.212527 0.0570628 158704 9690.63 2.10833 3580.2 -2118.93
-0.0042351 -0.21569 0.0593059 161961 9515.51 2.14574 3598.22 -2157.82
-0.00429837 -0.218913 0.0616922 165143 9327.16 2.18656 3618.44 -2196.5
-0.00436286 -0.222198 0.0640584 167619 9117.26 2.2332 3644.75 -2232.82
-0.00442858 -0.225546 0.065844 167466 8861.95 2.29264 3688.79 -2260.26
-0.00449557 -0.228959 0.0654912 159691 8496.03 2.38457 3781.92 -2260.08
-0.00456385 -0.232437 0.0598738 134946 7853.07 2.56184 3994.35 -2180.34
-0.00463343 -0.235982 0.0464425 87207 6542.65 2.97679 4440.29 -1891.74
-0.00470436 -0.239595 0.0288659 32677.9 3944.46 4.22453 5183.52 -1189.94
-0.00477664 -0.243278 0.0161598 3998.28 862.097 10.0226 5893.81 -242.468
-0.00485032 -0.247031 0.01388 900 225.929 20.0098 6028.83 8.86975e-13
-0.00492541 -0.250857 0.01388 900 225.929 20.0098 6028.83 1.15618e-12
-0.00500194 -0.254756 0.01388 900 225.929 20.0098 6028.83 -8.21092e-14
-0.00507994 -0.258729 0.01388 900 225.929 20.0098 6028.83 -7.71947e-13
-0.00515944 -0.26278 0.01388 900 225.929 20.0098 6028.83 -7.8056e-13
-0.00524047 -0.266908 0.01388 900 225.929 20.0098 6028.83 3.25798e-13
-0.00532305 -0.271115 0.01388 900 225.929 20.0098 6028.83 1.01693e-13
