TITLE = "Equilibrium Fractions vs Temperature"
VARIABLES = "T", "N2", "O2", "NO", "N", "O", "Ar", "Ar+", "N+", "O+", "e-"
ZONE T="Equilibrium Data", F=POINT
501.863 0.773299 0.207487 5.64524e-10 0 0 0.0192136 9.487e-61 0 9.30977e-281 0
609.127 0.773299 0.207487 2.66554e-08 0 2.81955e-304 0.0192136 1.4062e-42 0 1.86731e-220 0
713.164 0.773299 0.207487 3.70349e-07 0 1.31312e-214 0.0192136 4.43962e-40 0 5.98759e-178 0
814.129 0.773298 0.207486 2.50361e-06 0 2.32262e-127 0.0192136 2.13589e-37 0 2.78592e-137 0
912.377 0.773294 0.207482 1.07146e-05 0 1.53766e-52 0.0192136 7.62782e-34 0 3.65252e-97 0
1008.29 0.773282 0.207471 3.37105e-05 0 2.4264e-10 0.0192136 1.39368e-30 0 5.39473e-71 0
1102.19 0.773256 0.207445 8.53579e-05 1.59547e-252 3.0309e-09 0.0192136 2.14707e-28 0 5.63749e-51 0
1194.33 0.773207 0.207395 0.000184297 5.80099e-182 2.45286e-08 0.0192136 2.33741e-26 0 5.71065e-37 0
1284.89 0.773123 0.207311 0.000352663 2.67855e-126 1.42885e-07 0.0192136 1.95602e-24 0 5.17033e-27 0
1374.02 0.772992 0.20718 0.000614333 3.32243e-89 6.44569e-07 0.0192136 2.76131e-27 1.2911e-309 5.58333e-22 0
1461.79 0.772802 0.206989 0.000993089 1.29639e-61 2.37291e-06 0.0192136 9.16006e-32 9.17405e-273 2.02014e-20 0
1548.26 0.772541 0.206727 0.00151094 3.39674e-44 7.40947e-06 0.0192136 3.85454e-38 2.53602e-250 9.78456e-20 0
1633.45 0.772198 0.206382 0.00218672 3.94412e-29 2.02016e-05 0.0192134 3.29002e-40 1.86979e-220 1.5739e-18 0
1717.34 0.771763 0.20594 0.00303483 3.99049e-20 4.91689e-05 0.0192132 5.26706e-44 3.47868e-202 1.80812e-17 0
1799.83 0.771225 0.20539 0.00406421 8.08735e-14 0.000108671 0.0192126 2.50424e-47 6.43541e-186 3.14167e-17 0
1880.81 0.770575 0.204715 0.0052773 2.45537e-10 0.000221002 0.0192115 8.2989e-49 6.12341e-170 8.3998e-17 0
1960.06 0.769803 0.203901 0.00666904 8.31014e-10 0.000417835 0.0192096 6.2878e-49 1.30002e-154 1.96449e-16 0
2037.31 0.7689 0.202927 0.00822631 2.48824e-09 0.00074038 0.0192065 7.73096e-48 1.02883e-139 6.98884e-16 0
2112.24 0.767857 0.201776 0.00992789 6.67375e-09 0.00123758 0.0192017 8.83489e-46 1.9781e-125 2.78628e-15 3.3394e-297
2184.51 0.766668 0.20043 0.0117455 1.62021e-08 0.00196212 0.0191948 1.07067e-46 3.74242e-119 3.83556e-15 6.13017e-274
2253.81 0.76533 0.198874 0.0136461 3.59342e-08 0.00296488 0.0191851 5.92579e-44 1.24449e-106 1.40931e-14 2.65259e-242
2319.89 0.763843 0.197101 0.0155946 7.3435e-08 0.00428907 0.0191724 1.82089e-44 1.27475e-101 1.87024e-14 8.02481e-224
2382.61 0.762214 0.195107 0.0175571 1.39422e-07 0.00596579 0.0191563 1.93413e-41 9.30072e-91 6.60518e-14 2.07707e-198
2441.93 0.760449 0.192898 0.0195036 2.47879e-07 0.00801186 0.0191367 1.18471e-41 9.63712e-87 8.39924e-14 2.17023e-184
2497.9 0.758561 0.190485 0.0214094 4.15831e-07 0.0104302 0.0191134 2.44662e-38 4.33726e-77 2.8445e-13 1.4257e-164
2550.67 0.756562 0.187883 0.0232555 6.62879e-07 0.0132119 0.0190867 1.94841e-38 6.25305e-74 3.47773e-13 7.64764e-154
2600.42 0.754466 0.185108 0.0250287 1.01064e-06 0.0163394 0.0190566 1.67829e-38 4.7055e-71 4.18023e-13 4.05793e-144
2647.38 0.752286 0.182179 0.0267202 1.48222e-06 0.0197895 0.0190235 4.98021e-35 5.84917e-63 1.34529e-12 5.82119e-130
2691.77 0.750034 0.179115 0.0283253 2.10179e-06 0.0235359 0.0189875 5.72344e-35 6.7178e-61 1.57153e-12 1.84258e-122
2733.84 0.747723 0.175932 0.0298418 2.8943e-06 0.0275514 0.0189489 6.75686e-35 4.35153e-59 1.81428e-12 1.40275e-115
2773.8 0.745362 0.172648 0.0312698 3.88535e-06 0.0318089 0.018908 8.14637e-35 1.59479e-57 2.07288e-12 3.08115e-109
2811.87 0.74296 0.169276 0.0326108 5.1011e-06 0.0362828 0.018865 3.35119e-31 7.81689e-51 6.37941e-12 7.20596e-100
2848.23 0.740527 0.165831 0.0338668 6.5684e-06 0.040949 0.0188202 4.19804e-31 1.14614e-49 7.16439e-12 8.74365e-95
2883.06 0.738068 0.162324 0.0350409 8.31483e-06 0.0457852 0.0187737 5.30807e-31 1.4453e-48 7.9891e-12 4.86511e-90
2916.51 0.735591 0.158765 0.036136 1.03689e-05 0.0507714 0.0187258 6.76276e-31 1.59627e-47 8.85306e-12 1.36073e-85
2948.73 0.7331 0.155166 0.0371554 1.27603e-05 0.0558891 0.0186766 8.82211e-31 1.37711e-46 9.75565e-12 2.035e-81
2979.84 0.730601 0.151533 0.0381023 1.55199e-05 0.0611219 0.0186263 1.24979e-30 1.10271e-45 1.06969e-11 1.64088e-77
3009.95 0.728098 0.147874 0.0389799 1.86804e-05 0.0664546 0.018575 1.7709e-30 8.11596e-45 1.16773e-11 8.20936e-74
3039.17 0.725594 0.144196 0.039791 2.22764e-05 0.071874 0.0185229 2.50969e-30 5.54226e-44 1.26973e-11 2.68101e-70
3067.59 0.723092 0.140505 0.0405387 2.63444e-05 0.0773678 0.0184701 3.55746e-30 3.54059e-43 1.37577e-11 5.97325e-67
3095.3 0.720596 0.136806 0.0412254 3.0924e-05 0.0829252 0.0184167 1.73416e-26 1.02698e-37 4.0392e-11 6.59402e-63
3122.36 0.718108 0.133104 0.0418537 3.60571e-05 0.0885361 0.0183627 2.45368e-26 5.2082e-37 4.35025e-11 4.541e-60
3148.85 0.71563 0.129402 0.0424259 4.17895e-05 0.0941917 0.0183083 3.4714e-26 2.52879e-36 4.67326e-11 2.41354e-57
3174.82 0.713164 0.125706 0.042944 4.81705e-05 0.0998837 0.0182536 4.912e-26 1.1469e-35 5.00867e-11 1.01478e-54
3200.35 0.710713 0.122018 0.0434102 5.52538e-05 0.105605 0.0181986 6.95287e-26 4.57119e-35 5.35689e-11 3.45042e-52
3225.47 0.708277 0.118342 0.043826 6.30982e-05 0.111348 0.0181433 9.84942e-26 1.77234e-34 5.71859e-11 9.67546e-50
3250.25 0.705859 0.114681 0.0441932 7.17677e-05 0.117107 0.0180879 1.39683e-25 6.70607e-34 6.09444e-11 2.2774e-47
3274.73 0.70346 0.111037 0.0445132 8.1333e-05 0.122876 0.0180324 1.98386e-25 2.48356e-33 6.48515e-11 4.57194e-45
3298.95 0.701081 0.107413 0.0447875 9.18718e-05 0.12865 0.0179768 2.85328e-25 9.1251e-33 6.89156e-11 7.85764e-43
3322.96 0.698724 0.103811 0.0450171 0.00010347 0.134423 0.0179213 4.3319e-25 3.47491e-32 7.31457e-11 1.12425e-40
3346.79 0.696389 0.100234 0.0452032 0.000116223 0.140192 0.0178657 6.58677e-25 1.30388e-31 7.75519e-11 1.42916e-38
3370.48 0.694078 0.0966833 0.0453469 0.000130236 0.145951 0.0178103 1.00359e-24 4.83251e-31 8.21456e-11 1.6321e-36
3394.08 0.691792 0.0931619 0.0454489 0.000145628 0.151697 0.0177549 1.53306e-24 1.77317e-30 8.69392e-11 1.69149e-34
3417.62 0.689532 0.0896714 0.04551 0.00016253 0.157425 0.0176997 2.3492e-24 6.45558e-30 9.19465e-11 1.60611e-32
3441.13 0.687298 0.0862138 0.0455309 0.00018109 0.163131 0.0176447 3.6131e-24 2.33702e-29 9.7183e-11 1.40966e-30
3464.66 0.685093 0.0827911 0.0455122 0.000201473 0.168812 0.0175899 5.58072e-24 8.43027e-29 1.02666e-10 1.1532e-28
3488.23 0.682917 0.0794052 0.0454543 0.000223867 0.174464 0.0175354 2.87423e-27 3.16763e-32 3.98831e-11 9.99876e-25
3511.89 0.68077 0.0760582 0.0453578 0.000248482 0.180084 0.0174812 4.54919e-27 1.11765e-31 4.21017e-11 1.02896e-22
3535.67 0.678655 0.072752 0.0452228 0.000275558 0.185667 0.0174273 7.24962e-27 3.95068e-31 4.44338e-11 1.0057e-20
3559.61 0.676572 0.0694887 0.0450498 0.000305366 0.191211 0.0173738 1.16403e-26 1.40179e-30 4.68892e-11 9.4054e-19
3583.74 0.674522 0.0662703 0.0448387 0.000338216 0.19671 0.0173206 1.88451e-26 5.00263e-30 4.94786e-11 8.47728e-17
3608.11 0.672506 0.0630992 0.0445899 0.000374461 0.202163 0.0172679 3.07856e-26 1.79918e-29 5.22142e-11 7.41519e-15
3632.77 0.670525 0.0599775 0.0443034 0.000414506 0.207564 0.0172156 5.07901e-26 6.53432e-29 5.51115e-11 6.33727e-13
3657.74 0.668581 0.0569078 0.0439791 0.000458816 0.212909 0.0171638 8.48784e-26 2.40659e-28 5.83116e-11 5.31559e-11
3683.08 0.666675 0.0538924 0.0436171 0.000507928 0.218195 0.0171126 1.65324e-31 1.30745e-34 4.38419e-09 4.38419e-09
3708.84 0.664808 0.0509342 0.0432174 0.000562459 0.223416 0.0170619 1.45712e-26 8.39385e-29 5.16007e-09 5.16007e-09
3735.06 0.662981 0.048036 0.0427799 0.000623128 0.228569 0.0170118 4.43828e-27 4.63216e-29 6.07466e-09 6.07466e-09
3761.8 0.661195 0.0452007 0.0423046 0.000690766 0.233647 0.0169624 3.69247e-24 1.29842e-25 7.15475e-09 7.15475e-09
3789.1 0.659452 0.0424318 0.0417915 0.00076634 0.238645 0.0169136 5.46765e-22 5.35909e-23 8.43291e-09 8.43291e-09
3817.03 0.657753 0.0397326 0.0412406 0.000850978 0.243557 0.0168656 9.14819e-21 1.89141e-21 9.94888e-09 9.94888e-09
3845.65 0.656099 0.0371068 0.0406521 0.000945995 0.248378 0.0168184 7.69628e-19 3.53351e-19 1.17513e-08 1.17513e-08
3875.01 0.654492 0.0345583 0.0400262 0.00105293 0.253099 0.016772 8.02443e-18 7.26065e-18 1.38998e-08 1.38998e-08
3905.18 0.652932 0.0320911 0.0393633 0.00117357 0.257713 0.0167265 3.88395e-17 7.46353e-17 1.64676e-08 1.64676e-08
3936.22 0.651421 0.0297097 0.0386642 0.00131002 0.262213 0.016682 2.13662e-15 6.86795e-15 1.95452e-08 1.95452e-08
3968.19 0.649958 0.0274182 0.0379297 0.00146472 0.26659 0.0166385 5.21145e-14 2.10018e-13 2.3244e-08 2.32434e-08
4001.15 0.648545 0.0252214 0.0371612 0.00164051 0.270835 0.016596 1.75672e-13 1.09152e-12 2.77007e-08 2.77e-08
4035.14 0.647182 0.0231236 0.0363605 0.00184067 0.274939 0.0165547 5.06041e-13 4.87637e-12 3.30833e-08 3.30849e-08
4070.23 0.645867 0.0211293 0.0355297 0.00206898 0.278891 0.0165145 1.48345e-12 2.23026e-11 3.95932e-08 3.96113e-08
4106.43 0.644599 0.0192426 0.0346719 0.00232976 0.282681 0.0164756 4.15256e-12 8.10694e-11 4.74681e-08 4.75492e-08
4143.78 0.643376 0.0174671 0.0337903 0.00262785 0.286301 0.0164379 2.16191e-11 1.92634e-10 5.70077e-08 5.72161e-08
4182.25 0.642194 0.0158059 0.0328893 0.00296869 0.28974 0.0164016 5.0427e-11 2.652e-10 6.86285e-08 6.89398e-08
4221.84 0.64105 0.0142612 0.0319736 0.00335818 0.29299 0.0163667 1.12697e-10 3.66459e-10 8.27308e-08 8.32088e-08
4262.49 0.639938 0.0128339 0.0310486 0.00380269 0.296044 0.0163331 1.86103e-10 5.07976e-10 9.98458e-08 1.0054e-07
4304.12 0.63885 0.0115238 0.0301202 0.00430885 0.298896 0.0163008 2.35418e-10 7.05753e-10 1.20591e-07 1.21532e-07
4346.61 0.637781 0.0103295 0.0291945 0.00488342 0.301542 0.0162699 2.9804e-10 9.81408e-10 1.45629e-07 1.46909e-07
4389.82 0.63672 0.00924772 0.0282779 0.00553301 0.303981 0.0162402 3.77263e-10 1.36414e-09 1.75721e-07 1.77462e-07
4433.6 0.635659 0.00827412 0.0273764 0.00626387 0.306214 0.0162117 4.76983e-10 1.89262e-09 2.11693e-07 2.14063e-07
4477.75 0.634589 0.00740295 0.0264956 0.00708158 0.308246 0.0161843 6.01718e-10 2.61718e-09 2.54425e-07 2.57644e-07
4522.08 0.6335 0.00662748 0.0256405 0.00799086 0.310083 0.0161579 7.56599e-10 3.60203e-09 3.04828e-07 3.09187e-07
4566.41 0.632384 0.00594023 0.0248151 0.00899535 0.311732 0.0161325 9.47335e-10 4.92755e-09 3.63821e-07 3.69696e-07
4610.55 0.631234 0.00533334 0.0240227 0.0100975 0.313204 0.0161077 1.18014e-09 6.69228e-09 4.32307e-07 4.40179e-07
4654.31 0.630043 0.00479881 0.0232655 0.0112985 0.31451 0.0160836 1.46165e-09 9.01464e-09 5.11147e-07 5.21623e-07
4697.56 0.628805 0.00432883 0.0225446 0.0125985 0.315662 0.0160601 1.79881e-09 1.20341e-08 6.01142e-07 6.14975e-07
4740.15 0.627517 0.00391596 0.0218606 0.0139964 0.316672 0.0160369 2.19874e-09 1.59122e-08 7.03017e-07 7.21128e-07
4781.99 0.626176 0.00355328 0.0212132 0.0154903 0.317552 0.0160141 2.66868e-09 2.08322e-08 8.17408e-07 8.40909e-07
4822.98 0.62478 0.00323447 0.0206016 0.0170773 0.318313 0.0159916 3.21581e-09 2.69994e-08 9.44857e-07 9.75073e-07
4863.07 0.623328 0.00295388 0.0200245 0.0187541 0.318968 0.0159692 3.84719e-09 3.46397e-08 1.08581e-06 1.1243e-06
4902.21 0.621822 0.00270649 0.0194803 0.0205169 0.319525 0.0159469 4.56969e-09 4.39992e-08 1.24063e-06 1.2892e-06
4940.39 0.620261 0.00248788 0.0189675 0.0223615 0.319995 0.0159246 5.38991e-09 5.53421e-08 1.40956e-06 1.4703e-06
4977.59 0.618647 0.00229424 0.018484 0.0242836 0.320385 0.0159024 6.31416e-09 6.89496e-08 1.59281e-06 1.66807e-06
5013.81 0.616982 0.00212225 0.0180282 0.026279 0.320704 0.0158802 7.34838e-09 8.51177e-08 1.79047e-06 1.88294e-06
5049.06 0.615268 0.00196904 0.0175981 0.0283432 0.320959 0.0158579 8.49817e-09 1.04156e-07 2.0026e-06 2.11525e-06
5083.37 0.613507 0.00183216 0.0171919 0.030472 0.321156 0.0158355 9.76876e-09 1.26385e-07 2.22917e-06 2.36533e-06
5116.76 0.611702 0.0017095 0.016808 0.0326613 0.321301 0.0158131 1.1165e-08 1.52137e-07 2.47013e-06 2.63343e-06
5149.25 0.609854 0.00159925 0.0164447 0.0349071 0.321398 0.0157906 1.26914e-08 1.81749e-07 2.72537e-06 2.91981e-06
5180.87 0.607967 0.00149985 0.0161005 0.0372055 0.321453 0.015768 1.43521e-08 2.15569e-07 2.99475e-06 3.22467e-06
5211.66 0.606043 0.00140997 0.0157741 0.0395531 0.321468 0.0157452 1.61509e-08 2.53948e-07 3.27809e-06 3.54819e-06
5241.65 0.604083 0.00132846 0.0154641 0.0419463 0.321448 0.0157224 1.80914e-08 2.97241e-07 3.57522e-06 3.89055e-06
5270.86 0.60209 0.00125433 0.0151693 0.0443821 0.321396 0.0156995 2.01766e-08 3.45807e-07 3.88591e-06 4.25189e-06
5299.34 0.600067 0.00118673 0.0148886 0.0468573 0.321315 0.0156765 2.24095e-08 4.00006e-07 4.20994e-06 4.63235e-06
5327.11 0.598015 0.00112491 0.014621 0.0493692 0.321206 0.0156534 2.47927e-08 4.60201e-07 4.54706e-06 5.03206e-06
5354.2 0.595936 0.00106823 0.0143656 0.0519151 0.321074 0.0156302 2.73287e-08 5.26754e-07 4.89704e-06 5.45112e-06
5380.65 0.593832 0.00101615 0.0141216 0.0544925 0.320919 0.0156069 3.00196e-08 6.00027e-07 5.25961e-06 5.88965e-06
5406.48 0.591705 0.000968162 0.013888 0.0570992 0.320743 0.0155836 3.28673e-08 6.8038e-07 5.63452e-06 6.34777e-06
5431.72 0.589556 0.000923853 0.0136643 0.059733 0.320549 0.0155601 3.58737e-08 7.68173e-07 6.02151e-06 6.82556e-06
5456.39 0.587387 0.00088285 0.0134497 0.0623918 0.320337 0.0155366 3.90402e-08 8.63763e-07 6.42032e-06 7.32312e-06
5480.53 0.5852 0.000844824 0.0132437 0.0650739 0.320109 0.015513 4.23683e-08 9.67506e-07 6.83069e-06 7.84057e-06
5504.15 0.582995 0.000809487 0.0130458 0.0677773 0.319866 0.0154893 4.58594e-08 1.07975e-06 7.25237e-06 8.37798e-06
5527.27 0.580774 0.000776586 0.0128553 0.0705006 0.31961 0.0154656 4.95144e-08 1.20086e-06 7.68509e-06 8.93546e-06
5549.92 0.578538 0.000745895 0.0126718 0.0732422 0.319341 0.0154418 5.33345e-08 1.33116e-06 8.12862e-06 9.51312e-06
5572.13 0.576289 0.000717214 0.0124949 0.0760006 0.31906 0.015418 5.73205e-08 1.47101e-06 8.5827e-06 1.0111e-05
5593.89 0.574026 0.000690366 0.0123242 0.0787745 0.318769 0.0153941 6.14732e-08 1.62074e-06 9.04709e-06 1.07293e-05
5615.25 0.571753 0.000665191 0.0121594 0.0815626 0.318467 0.0153702 6.57934e-08 1.7807e-06 9.52157e-06 1.13681e-05
5636.21 0.569468 0.000641549 0.0120001 0.0843638 0.318156 0.0153463 7.02815e-08 1.9512e-06 1.00059e-05 1.20274e-05
5656.78 0.567174 0.000619311 0.0118459 0.0871769 0.317837 0.0153223 7.49382e-08 2.13259e-06 1.04998e-05 1.27073e-05
5677 0.56487 0.000598365 0.0116966 0.090001 0.317509 0.0152983 7.97639e-08 2.32518e-06 1.10032e-05 1.34081e-05
5696.86 0.562558 0.000578608 0.011552 0.0928351 0.317174 0.0152743 8.4759e-08 2.5293e-06 1.15157e-05 1.41297e-05
5716.38 0.560239 0.000559946 0.0114117 0.0956782 0.316831 0.0152502 8.99239e-08 2.74527e-06 1.20372e-05 1.48724e-05
5735.59 0.557913 0.000542297 0.0112756 0.0985295 0.316482 0.0152261 9.52588e-08 2.9734e-06 1.25675e-05 1.56361e-05
5754.48 0.55558 0.000525585 0.0111435 0.101388 0.316128 0.0152021 1.00764e-07 3.21399e-06 1.31063e-05 1.64211e-05
5773.07 0.553242 0.000509741 0.011015 0.104254 0.315767 0.015178 1.0644e-07 3.46737e-06 1.36536e-05 1.72274e-05
5791.38 0.550899 0.000494703 0.0108901 0.107125 0.315401 0.0151539 1.12286e-07 3.73382e-06 1.42091e-05 1.80552e-05
5809.4 0.548552 0.000480414 0.0107686 0.110001 0.31503 0.0151298 1.18304e-07 4.01365e-06 1.47725e-05 1.89045e-05
5827.17 0.546201 0.000466822 0.0106503 0.112883 0.314655 0.0151057 1.24492e-07 4.30715e-06 1.53439e-05 1.97755e-05
5844.67 0.543846 0.00045388 0.010535 0.115768 0.314275 0.0150816 1.30852e-07 4.61463e-06 1.59229e-05 2.06684e-05
5861.93 0.541488 0.000441545 0.0104226 0.118656 0.313891 0.0150575 1.37382e-07 4.93636e-06 1.65095e-05 2.15833e-05
5878.95 0.539127 0.000429777 0.0103131 0.121548 0.313503 0.0150334 1.44084e-07 5.27264e-06 1.71035e-05 2.25202e-05
5895.73 0.536765 0.000418539 0.0102062 0.124442 0.313112 0.0150093 1.50958e-07 5.62374e-06 1.77046e-05 2.34793e-05
5912.3 0.5344 0.000407799 0.0101018 0.127338 0.312718 0.0149852 1.58002e-07 5.98995e-06 1.83129e-05 2.44608e-05
5928.65 0.532035 0.000397525 0.00999987 0.130236 0.31232 0.0149612 1.65219e-07 6.37155e-06 1.89281e-05 2.54648e-05
5944.79 0.529668 0.000387689 0.00990026 0.133134 0.31192 0.0149371 1.72606e-07 6.7688e-06 1.95501e-05 2.64915e-05
5960.74 0.5273 0.000378265 0.00980289 0.136034 0.311517 0.0149131 1.80165e-07 7.18199e-06 2.01787e-05 2.75409e-05
5976.48 0.524932 0.000369228 0.00970764 0.138933 0.311111 0.0148891 1.87896e-07 7.61138e-06 2.08139e-05 2.86132e-05
5992.05 0.522564 0.000360556 0.00961445 0.141833 0.310704 0.0148651 1.95798e-07 8.05725e-06 2.14556e-05 2.97086e-05
6007.42 0.520196 0.000352229 0.00952323 0.144732 0.310294 0.0148412 2.03872e-07 8.51984e-06 2.21036e-05 3.08273e-05
6022.63 0.517829 0.000344227 0.0094339 0.14763 0.309882 0.0148173 2.12118e-07 8.99944e-06 2.27577e-05 3.19693e-05
6037.66 0.515462 0.000336532 0.00934639 0.150528 0.309468 0.0147934 2.20535e-07 9.49629e-06 2.3418e-05 3.31348e-05
6052.53 0.513096 0.000329127 0.00926062 0.153424 0.309052 0.0147695 2.29124e-07 1.00107e-05 2.40842e-05 3.4324e-05
6067.23 0.510731 0.000321997 0.00917654 0.156318 0.308635 0.0147456 2.37885e-07 1.05428e-05 2.47564e-05 3.55371e-05
6081.79 0.508368 0.000315128 0.00909409 0.159211 0.308217 0.0147218 2.46818e-07 1.1093e-05 2.54343e-05 3.67741e-05
6096.19 0.506006 0.000308506 0.00901319 0.162102 0.307797 0.0146981 2.55923e-07 1.16614e-05 2.6118e-05 3.80354e-05
6110.44 0.503646 0.000302118 0.0089338 0.16499 0.307376 0.0146743 2.65201e-07 1.22484e-05 2.68073e-05 3.93209e-05
6124.56 0.501287 0.000295952 0.00885587 0.167876 0.306953 0.0146506 2.7465e-07 1.28542e-05 2.75021e-05 4.0631e-05
6138.53 0.498931 0.000289999 0.00877933 0.170759 0.30653 0.0146269 2.84272e-07 1.3479e-05 2.82024e-05 4.19657e-05
6152.37 0.496578 0.000284246 0.00870416 0.173638 0.306105 0.0146033 2.94067e-07 1.41231e-05 2.89081e-05 4.33253e-05
6166.09 0.494227 0.000278686 0.00863029 0.176515 0.30568 0.0145797 3.04034e-07 1.47868e-05 2.9619e-05 4.47098e-05
6179.67 0.491878 0.000273307 0.00855768 0.179389 0.305254 0.0145561 3.14174e-07 1.54702e-05 3.03353e-05 4.61196e-05
6193.14 0.489532 0.000268103 0.0084863 0.182258 0.304827 0.0145326 3.24488e-07 1.61736e-05 3.10566e-05 4.75547e-05
6206.48 0.487189 0.000263064 0.00841611 0.185124 0.3044 0.0145091 3.34974e-07 1.68973e-05 3.17832e-05 4.90154e-05
6219.71 0.484849 0.000258184 0.00834706 0.187987 0.303972 0.0144857 3.45635e-07 1.76415e-05 3.25147e-05 5.05018e-05
6232.83 0.482512 0.000253455 0.00827912 0.190845 0.303544 0.0144623 3.56469e-07 1.84065e-05 3.32513e-05 5.20142e-05
6245.83 0.480179 0.000248871 0.00821226 0.193699 0.303115 0.0144389 3.67478e-07 1.91924e-05 3.39928e-05 5.35526e-05
6258.73 0.477849 0.000244425 0.00814644 0.196549 0.302686 0.0144156 3.78661e-07 1.99996e-05 3.47391e-05 5.51174e-05
6271.53 0.475522 0.000240111 0.00808163 0.199394 0.302256 0.0143923 3.90019e-07 2.08283e-05 3.54904e-05 5.67087e-05
6284.22 0.473199 0.000235924 0.0080178 0.202235 0.301826 0.0143691 4.01551e-07 2.16787e-05 3.62464e-05 5.83266e-05
6296.82 0.47088 0.000231858 0.00795492 0.205071 0.301396 0.014346 4.1326e-07 2.2551e-05 3.70072e-05 5.99714e-05
6309.32 0.468565 0.000227908 0.00789297 0.207902 0.300966 0.0143228 4.25144e-07 2.34456e-05 3.77726e-05 6.16434e-05
6321.73 0.466253 0.00022407 0.00783191 0.210729 0.300536 0.0142997 4.37205e-07 2.43626e-05 3.85428e-05 6.33426e-05
6334.04 0.463945 0.000220339 0.00777173 0.21355 0.300106 0.0142767 4.49443e-07 2.53023e-05 3.93176e-05 6.50693e-05
6346.27 0.461642 0.00021671 0.0077124 0.216366 0.299675 0.0142537 4.61857e-07 2.62649e-05 4.0097e-05 6.68237e-05
6358.41 0.459342 0.00021318 0.00765389 0.219178 0.299245 0.0142308 4.7445e-07 2.72507e-05 4.0881e-05 6.86061e-05
6370.46 0.457047 0.000209745 0.00759618 0.221983 0.298815 0.0142079 4.8722e-07 2.82599e-05 4.16695e-05 7.04166e-05
6382.44 0.454756 0.000206401 0.00753925 0.224784 0.298385 0.0141851 5.0017e-07 2.92928e-05 4.24625e-05 7.22554e-05
6394.33 0.45247 0.000203144 0.00748308 0.227579 0.297955 0.0141623 5.13298e-07 3.03495e-05 4.326e-05 7.41228e-05
6406.15 0.450188 0.000199972 0.00742765 0.230368 0.297525 0.0141395 5.26607e-07 3.14305e-05 4.4062e-05 7.60191e-05
